Time,Surface Speed (m/s),GForce (g),Acceleration (m/s^2),Thrust (kN),TWR,Mass (t),Pitch (deg),Heading (deg),Roll (deg),Angle of Attack (deg),Mach number,Altitude from Terrain (m),Altitude from the Sea (m),Downrange Distance (m),Latitude (deg),Longitude (deg),Apoapsis (m),Periapsis (m),Time to Apoapsis (s),Time to Periapsis (s),Inclination (deg),Orbital Velocity (m/s),Gravity (m/s^2),Target Distance (m),Target Speed (m/s),Stage DeltaV (m/s),Vessel DeltaV (m/s),Pressure (kPa),External Temperature (K),
1,118.75,12.66,114.57,52.33,,0.4,78.8,,-87.65,0.01,0.31,,159.75,11.8,28.60839,-80.59987,,,,,,,,,,,,99.48,293.91,
2,238.39,13.39,121.71,52.42,,0.38,78.17,,-82.26,0.01,0.66,,335.31,47.68,28.60839,-80.60024,,,,,,,,,,,,97.46,292.98,
3,359.25,13.04,118.37,52.55,,0.35,77.74,,-77.52,0,1.01,,629.36,110.51,28.60839,-80.60088,,,,,,,,,,,,94.14,346.6,
4.02,468.28,12.01,108.22,52.71,,0.32,77.39,,-82.66,0,1.34,,1042.41,201.63,28.60839,-80.60182,,,,,,,,,,,,89.62,456.15,
5.04,582.73,12.35,111.63,52.84,,0.29,77.09,,-95.61,0,1.68,,1566.42,320.35,28.60838,-80.60303,,,,,,,,,,,,84.16,570.52,
6.06,693.31,11.88,106.98,52.95,,0.27,76.81,,-112.18,0,2.02,,2201.86,467.69,28.60838,-80.60454,,,,,,,,,,,,77.91,681.61,
7.06,726.1,6.68,75.06,0,,0.25,76.56,,-130.22,0,2.2,,2915.09,636.44,28.60838,-80.60627,,,,,,,,,,,,71.36,736.45,
8.08,660.99,4.25,51.23,0,,0.16,76.35,,-161.07,0,2,,3598.27,800.96,28.60838,-80.60795,,,,,,,,,,,,65.52,666.5,
9.08,633.19,0.74,16.89,4.58,,0.16,76.13,,-176.48,0,1.92,,4223.02,953.87,28.60838,-80.60952,,,,,,,,,,,,60.54,634.97,
10.08,619,0.38,13.39,4.57,,0.16,75.91,,175.98,0,1.89,,4830.15,1104.91,28.60839,-80.61107,,,,,,,,,,,,56,620.4,
11.08,607.96,0.07,10.46,4.57,,0.15,75.68,,172.09,0,1.87,,5424.53,1255.27,28.60839,-80.61261,,,,,,,,,,,,51.84,609.04,
12.08,599.61,0.19,8.01,4.57,,0.15,75.44,,169.97,0,1.85,,6008.96,1405.63,28.6084,-80.61415,,,,,,,,,,,,48,600.41,
13.1,593.46,0.42,5.93,4.56,,0.15,75.19,,168.75,0,1.85,,6597.31,1559.66,28.6084,-80.61573,,,,,,,,,,,,44.37,594.02,
14.1,589.47,0.61,4.28,4.56,,0.15,74.94,,168.05,0,1.85,,7168.61,1711.86,28.60841,-80.61729,,,,,,,,,,,,41.07,589.83,
15.12,587.24,0.79,3.1,4.55,,0.15,74.68,,167.62,0,1.85,,7747.6,1868.87,28.60841,-80.61889,,,,,,,,,,,,37.93,587.4,
16.12,586.64,0.94,2.65,4.55,,0.14,74.42,,167.35,0,1.87,,8313.21,2024.99,28.60842,-80.62049,,,,,,,,,,,,35.05,586.63,
17.12,587.47,1.09,2.97,4.55,,0.14,74.16,,167.18,0,1.88,,8878.22,2183.71,28.60843,-80.62212,,,,,,,,,,,,32.36,587.31,
18.14,589.69,1.22,3.75,4.54,,0.14,73.89,,167.06,0,1.91,,9455.29,2348.72,28.60843,-80.62381,,,,,,,,,,,,29.79,589.39,
19.14,593.12,1.34,4.7,4.54,,0.14,73.62,,166.99,0,1.93,,10023,2513.94,28.60844,-80.6255,,,,,,,,,,,,27.42,592.68,
20.14,597.74,1.46,5.72,4.54,,0.14,73.35,,166.93,0,1.96,,10593.79,2682.99,28.60845,-80.62723,,,,,,,,,,,,25.21,597.17,
21.16,603.65,1.58,6.79,4.54,,0.13,73.07,,166.9,0,2,,11180.3,2859.76,28.60845,-80.62904,,,,,,,,,,,,23.09,602.95,
22.18,610.75,1.7,7.88,4.53,,0.13,72.78,,166.87,0,2.04,,11772.3,3041.33,28.60846,-80.6309,,,,,,,,,,,,21.11,609.93,
23.2,619.02,1.81,8.96,4.53,,0.13,72.5,,166.86,0,2.08,,12370.89,3228.12,28.60847,-80.63282,,,,,,,,,,,,19.25,618.1,
24.2,628.27,1.92,10.04,4.53,,0.13,72.22,,166.84,0,2.12,,12965.21,3416.75,28.60848,-80.63475,,,,,,,,,,,,17.55,627.27,
25.2,638.61,2.03,11.11,4.53,,0.13,71.95,,166.84,0,2.17,,13567.93,3611.23,28.60849,-80.63674,,,,,,,,,,,,15.97,637.62,
26.22,650.31,2.15,12.21,4.53,,0.12,71.67,,166.83,0,2.23,,14192.42,3816.08,28.6085,-80.63884,,,,,,,,,,,,14.46,649.44,
27.24,663.16,2.26,13.32,4.53,,0.12,71.39,,166.82,0,2.28,,14827.78,4027.93,28.6085,-80.64101,,,,,,,,,,,,13.06,662.61,
28.26,677.18,2.38,14.45,4.53,,0.12,71.11,,166.82,0,2.34,,15475.09,4247.24,28.60851,-80.64326,,,,,,,,,,,,11.76,677.19,
29.26,692.09,2.5,15.6,4.52,,0.12,70.84,,166.82,0,2.4,,16122.34,4469.97,28.60853,-80.64554,,,,,,,,,,,,10.58,692.94,
30.28,708.53,2.62,16.81,4.52,,0.12,70.56,,166.82,0,2.46,,16796.54,4705.54,28.60854,-80.64795,,,,,,,,,,,,9.47,710.56,
31.28,725.87,2.74,18.02,4.52,,0.11,70.3,,166.82,0,2.52,,17472.35,4945.21,28.60855,-80.65041,,,,,,,,,,,,8.48,729.47,
32.28,744.45,2.87,19.26,4.52,,0.11,70.03,,166.82,0,2.58,,18163.96,5194.05,28.60856,-80.65296,,,,,,,,,,,,7.58,750.1,
33.28,764.3,2.99,20.51,4.52,,0.11,69.77,,166.82,0,2.64,,18872.47,5452.58,28.60857,-80.6556,,,,,,,,,,,,6.75,772.54,
34.3,785.86,3.13,21.81,4.52,,0.11,69.51,,166.82,0,2.7,,19613.75,5726.84,28.60859,-80.65841,,,,,,,,,,,,5.99,797.47,
35.32,808.75,3.26,23.11,4.52,,0.11,69.26,,166.83,0,2.77,,20375.02,6012.36,28.6086,-80.66134,,,,,,,,,,,,5.3,824.63,
36.34,833,3.39,24.43,4.52,,0.1,69.01,,166.83,0,2.83,,21157.49,6309.74,28.60861,-80.66439,,,,,,,,,,,,4.68,854.31,
37.34,858.08,3.52,25.72,4.52,,0.1,68.77,,166.83,0,2.91,,21946.37,6613.41,28.60863,-80.6675,,,,,,,,,,,,4.13,886.16,
38.34,884.47,3.65,27.03,4.52,,0.1,68.53,,166.84,0,2.98,,22757.95,6929.67,28.60865,-80.67074,,,,,,,,,,,,3.64,921.07,
39.34,912.18,3.79,28.35,4.52,,0.1,68.3,,166.84,0,3.07,,23593.39,7259.12,28.60866,-80.67411,,,,,,,,,,,,3.19,959.36,
40.36,941.84,3.93,29.72,4.52,,0.1,68.06,,166.84,0,3.15,,24471.33,7609.39,28.60868,-80.6777,,,,,,,,,,,,2.79,1002.29,
41.36,972.29,4.07,31.09,4.52,,0.09,67.84,,166.85,0,3.24,,25358.55,7967.38,28.6087,-80.68137,,,,,,,,,,,,2.43,1048.62,
42.36,1004.14,4.21,32.49,4.52,,0.09,67.62,,166.85,0,3.33,,26273.23,8340.48,28.60872,-80.68519,,,,,,,,,,,,2.12,1099.62,
43.36,1037.42,4.35,33.93,4.52,,0.09,67.41,,166.86,0,3.43,,27216.59,8729.35,28.60874,-80.68917,,,,,,,,,,,,1.83,1155.77,
44.38,1072.88,4.5,35.42,4.52,,0.09,67.2,,166.86,0,3.53,,28209.7,9142.93,28.60876,-80.69341,,,,,,,,,,,,1.58,1218.86,
45.4,1109.89,4.66,36.97,4.52,,0.09,66.99,,166.86,0,3.64,,29235.34,9574.38,28.60878,-80.69783,,,,,,,,,,,,1.36,1288.33,
46.4,1147.75,4.82,38.52,4.52,,0.08,66.8,,166.87,0,3.74,,30273.82,10015.43,28.6088,-80.70235,,,,,,,,,,,,1.16,1363.09,
47.4,1187.19,4.98,40.12,4.52,,0.08,66.61,,166.87,0,3.85,,31346.3,10475.13,28.60883,-80.70705,,,,,,,,,,,,0.99,1445.17,
48.4,1228.28,5.15,41.78,4.52,,0.08,66.42,,166.88,0,3.97,,32454.19,10954.23,28.60885,-80.71196,,,,,,,,,,,,0.85,1535.34,
49.4,1271.06,5.32,43.48,4.52,,0.08,66.24,,166.88,0,4.08,,33598.96,11453.55,28.60888,-80.71708,,,,,,,,,,,,0.72,1592.05,
50.4,1315.6,5.5,45.25,4.52,,0.08,66.06,,166.89,0,4.2,,34782.09,11973.88,28.6089,-80.72241,,,,,,,,,,,,0.61,1633.68,
51.4,1312.13,0.31,12.56,0,,0.08,65.89,,166.89,0,4.19,,35985.39,12507.33,28.60893,-80.72787,,,,,,,,,,,,0.51,1636.31,
52.4,1300.66,0.25,12.01,0,,0.08,65.71,,166.9,0,4.13,,37176.81,13039.77,28.60896,-80.73333,,,,,,,,,,,,0.44,1625.52,
53.4,1289.7,0.2,11.56,0,,0.08,65.53,,166.9,0,4.07,,38356.36,13571.18,28.60899,-80.73877,,,,,,,,,,,,0.37,1615.2,
54.4,1279.18,0.16,11.19,0,,0.08,65.35,,166.91,0,4.01,,39524.46,14101.77,28.60901,-80.7442,,,,,,,,,,,,0.32,1605.28,
55.4,1269.01,0.13,10.89,0,,0.08,65.17,,166.91,0,3.96,,40681.46,14631.66,28.60904,-80.74963,,,,,,,,,,,,0.27,1576.44,
56.4,1259.15,0.1,10.63,0,,0.08,64.98,,166.91,0,3.91,,41827.65,15161,28.60907,-80.75506,,,,,,,,,,,,0.23,1543.15,
57.42,1249.33,0.08,10.45,0,,0.08,64.79,,166.92,0,3.86,,42985.87,15700.46,28.6091,-80.76058,,,,,,,,,,,,0.2,1511.55,
58.44,1239.65,0.07,10.35,0,,0.08,64.59,,166.92,0,3.81,,44133.24,16239.52,28.60913,-80.7661,,,,,,,,,,,,0.17,1482.27,
59.44,1230.27,0.06,10.26,0,,0.08,64.39,,166.93,0,3.76,,45247.7,16767.66,28.60915,-80.77151,,,,,,,,,,,,0.15,1455.8,
60.44,1220.99,0.06,10.19,0,,0.08,64.2,,166.93,0,3.72,,46351.92,17295.49,28.60918,-80.77692,,,,,,,,,,,,0.13,1431.51,
61.46,1211.62,0.05,10.13,0,,0.08,63.99,,166.94,0,3.68,,47467.75,17833.6,28.60921,-80.78243,,,,,,,,,,,,0.11,1408.91,
62.46,1202.51,0.04,10.07,0,,0.08,63.79,,166.94,0,3.65,,48551.49,18360.91,28.60923,-80.78783,,,,,,,,,,,,0.1,1388.81,
63.46,1193.46,0.04,10.02,0,,0.08,63.58,,166.95,0,3.62,,49625.19,18887.98,28.60926,-80.79323,,,,,,,,,,,,0.09,1370.69,
64.48,1184.3,0.04,9.98,0,,0.08,63.37,,166.95,0,3.6,,50710.05,19425.39,28.60929,-80.79874,,,,,,,,,,,,0.08,1354.12,
65.48,1175.37,0.03,9.95,0,,0.08,63.15,,166.96,0,3.58,,51763.58,19952.07,28.60932,-80.80413,,,,,,,,,,,,0.07,1339.49,
66.48,1166.5,0.03,9.92,0,,0.08,62.94,,166.96,0,3.57,,52807.18,20478.57,28.60934,-80.80953,,,,,,,,,,,,0.06,1326.22,
67.48,1157.67,0.03,9.89,0,,0.08,62.72,,166.96,0,3.55,,53840.88,21004.91,28.60937,-80.81492,,,,,,,,,,,,0.05,1314.03,
68.48,1148.89,0.02,9.86,0,,0.08,62.5,,166.97,0,3.54,,54864.7,21531.1,28.6094,-80.82031,,,,,,,,,,,,0.04,1302.25,
69.48,1140.15,0.02,9.84,0,,0.08,62.27,,166.97,0,3.53,,55878.68,22057.16,28.60943,-80.8257,,,,,,,,,,,,0.04,1290.85,
70.5,1131.28,0.02,9.82,0,,0.08,62.04,,166.98,0,3.53,,56902.82,22593.6,28.60945,-80.83119,,,,,,,,,,,,0.03,1279.77,
71.52,1122.44,0.02,9.8,0,,0.08,61.8,,166.98,0,3.52,,57916.75,23129.91,28.60948,-80.83669,,,,,,,,,,,,0.03,1269.09,
72.54,1113.65,0.02,9.78,0,,0.08,61.56,,166.99,0,3.51,,58920.5,23666.11,28.60951,-80.84218,,,,,,,,,,,,0.03,1258.69,
73.54,1105.06,0.01,9.77,0,,0.08,61.32,,166.99,-0.01,3.51,,59894.71,24191.68,28.60954,-80.84756,,,,,,,,,,,,0.02,1248.64,
74.54,1096.51,0.01,9.76,0,,0.08,61.08,,167,-0.01,3.5,,60859.15,24717.15,28.60956,-80.85295,,,,,,,,,,,,0.02,1238.61,
75.56,1087.82,0.01,9.74,0,,0.08,60.83,,167,-0.01,3.5,,61832.84,25253.04,28.60959,-80.85844,,,,,,,,,,,,0.02,1228.31,
76.58,1079.16,0.01,9.73,0,,0.08,60.57,,167.01,-0.01,3.49,,62796.41,25788.82,28.60962,-80.86392,,,,,,,,,,,,0.02,1217.96,
77.58,1070.7,0.01,9.72,0,,0.08,60.32,,167.01,-0.01,3.48,,63731.26,26314.01,28.60964,-80.8693,,,,,,,,,,,,0.01,1207.74,
78.58,1062.28,0.01,9.71,0,,0.08,60.06,,167.01,-0.01,3.48,,64656.41,26839.13,28.60967,-80.87468,,,,,,,,,,,,0.01,1197.45,
79.6,1053.72,0.01,9.7,0,,0.08,59.79,,167.02,-0.01,3.47,,65590.06,27374.66,28.6097,-80.88017,,,,,,,,,,,,0.01,1187.12,
80.6,1045.37,0.01,9.69,0,,0.08,59.53,,167.02,-0.02,3.46,,66495.62,27899.61,28.60973,-80.88555,,,,,,,,,,,,0.01,1177.2,
81.62,1036.87,0.01,9.69,0,,0.08,59.25,,167.03,-0.02,3.46,,67409.32,28434.99,28.60975,-80.89103,,,,,,,,,,,,0.01,1167.21,
82.64,1028.41,0.01,9.68,0,,0.08,58.98,,167.03,-0.02,3.45,,68312.95,28970.3,28.60978,-80.89652,,,,,,,,,,,,0.01,1157.23,
83.64,1020.15,0.01,9.67,0,,0.08,58.7,,167.04,-0.03,3.45,,69189.1,29495.05,28.60981,-80.90189,,,,,,,,,,,,0.01,1147.36,
84.64,1011.92,0.01,9.66,0,,0.08,58.42,,167.04,-0.03,3.44,,70055.59,30019.73,28.60983,-80.90727,,,,,,,,,,,,0.01,1137.33,
85.66,1003.56,0.01,9.66,0,,0.08,58.13,,167.04,-0.04,3.43,,70929.47,30554.85,28.60986,-80.91275,,,,,,,,,,,,0,1126.84,
86.68,995.22,0.01,9.65,0,,0.08,57.84,,167.05,-0.04,3.42,,71793.31,31089.9,28.60989,-80.91823,,,,,,,,,,,,0,1116.02,
87.7,986.93,0,9.65,0,,0.08,57.54,,167.05,-0.05,3.41,,72647.12,31624.9,28.60992,-80.92371,,,,,,,,,,,,0,1104.81,
88.7,978.82,0,9.64,0,,0.08,57.24,,167.06,-0.06,3.4,,73474.45,32149.35,28.60994,-80.92908,,,,,,,,,,,,0,1093.45,
89.7,970.75,0,9.64,0,,0.08,56.94,,167.06,-0.06,3.38,,74292.15,32673.74,28.60997,-80.93445,,,,,,,,,,,,0,1081.99,
90.72,962.55,0,9.63,0,,0.08,56.63,,167.07,-0.07,3.37,,75116.29,33208.57,28.61,-80.93993,,,,,,,,,,,,0,1070.23,
91.74,954.39,0,9.63,0,,0.08,56.32,,167.07,-0.08,3.35,,75930.41,33743.35,28.61002,-80.94541,,,,,,,,,,,,0,1058.2,
92.76,946.26,0,9.63,0,,0.08,56,,167.07,-0.1,3.33,,76734.53,34278.08,28.61005,-80.95089,,,,,,,,,,,,0,1045.93,
93.78,938.16,0,9.62,0,,0.08,55.68,,167.08,-0.11,3.31,,77528.64,34812.75,28.61008,-80.95636,,,,,,,,,,,,0,1033.49,
94.8,930.1,0,9.62,0,,0.08,55.35,,167.08,-0.12,3.29,,78312.76,35347.38,28.6101,-80.96184,,,,,,,,,,,,0,1020.96,
95.8,922.24,0,9.61,0,,0.08,55.02,,167.09,-0.14,3.27,,79071.79,35871.48,28.61013,-80.96721,,,,,,,,,,,,0,1008.65,
96.8,914.41,0,9.61,0,,0.08,54.7,,167.09,-0.16,3.25,,79821.22,36395.53,28.61016,-80.97258,,,,,,,,,,,,0,996.37,
97.8,906.62,0,9.61,0,,0.08,54.36,,167.1,-0.18,3.23,,80561.05,36919.54,28.61018,-80.97795,,,,,,,,,,,,0,984.17,
98.8,898.87,0,9.6,0,,0.08,54.03,,167.1,-0.2,3.2,,81291.29,37443.5,28.61021,-80.98331,,,,,,,,,,,,0,972.09,
99.8,891.16,0,9.6,0,,0.08,53.69,,167.11,-0.23,3.18,,82011.93,37967.43,28.61024,-80.98868,,,,,,,,,,,,0,960.16,
100.8,883.49,0,9.6,0,,0.08,53.34,,167.11,-0.25,3.16,,82722.99,38491.32,28.61026,-80.99405,,,,,,,,,,,,0,948.41,
101.8,875.86,0,9.59,0,,0.08,53,,167.11,-0.28,3.13,,83424.46,39015.16,28.61029,-80.99941,,,,,,,,,,,,0,936.86,
102.82,868.11,0,9.59,0,,0.08,52.64,,167.12,-0.31,3.11,,84130.09,39549.45,28.61032,-81.00489,,,,,,,,,,,,0,925.31,
103.84,860.42,0,9.59,0,,0.08,52.28,,167.12,-0.35,3.08,,84825.75,40083.7,28.61034,-81.01036,,,,,,,,,,,,0,913.99,
104.86,852.76,0,9.58,0,,0.08,51.91,,167.13,-0.39,3.06,,85511.45,40617.91,28.61037,-81.01583,,,,,,,,,,,,0,902.92,
105.86,845.31,0,9.58,0,,0.08,51.55,,167.13,-0.43,3.04,,86174.03,41141.61,28.6104,-81.0212,,,,,,,,,,,,0,892.28,
106.88,837.74,0,9.58,0,,0.08,51.18,,167.13,-0.48,3.01,,86840.01,41675.75,28.61042,-81.02667,,,,,,,,,,,,0,881.57,
107.88,830.38,0,9.58,0,,0.08,50.81,,167.14,-0.53,2.99,,87483.27,42199.38,28.61045,-81.03203,,,,,,,,,,,,0,871.22,
108.88,823.06,0,9.57,0,,0.08,50.44,,167.14,-0.59,2.97,,88116.96,42722.98,28.61048,-81.0374,,,,,,,,,,,,0,861.01,
109.88,815.79,0,9.57,0,,0.08,50.07,,167.15,-0.64,2.94,,88741.09,43246.55,28.6105,-81.04276,,,,,,,,,,,,0,850.96,
110.9,808.42,0,9.57,0,,0.08,49.68,,167.15,-0.71,2.92,,89367.85,43780.56,28.61053,-81.04823,,,,,,,,,,,,0,840.89,
111.9,801.25,0,9.57,0,,0.08,49.3,,167.16,-0.78,2.89,,89972.67,44304.07,28.61056,-81.05359,,,,,,,,,,,,0,831.2,
112.9,794.13,0,9.56,0,,0.08,48.92,,167.16,-0.85,2.87,,90567.93,44827.55,28.61058,-81.05896,,,,,,,,,,,,0,821.71,
113.9,787.07,0,9.56,0,,0.08,48.53,,167.16,-0.93,2.84,,91153.65,45351,28.61061,-81.06432,,,,,,,,,,,,0,812.39,
114.9,780.06,0,9.56,0,,0.08,48.14,,167.17,-1.01,2.82,,91729.81,45874.42,28.61063,-81.06968,,,,,,,,,,,,0,803.21,
115.92,772.97,0,9.56,0,,0.08,47.75,,167.17,-1.1,2.79,,92307.65,46408.29,28.61066,-81.07515,,,,,,,,,,,,0,794,
116.92,766.07,0,9.55,0,,0.08,47.35,,167.17,-1.2,2.77,,92864.53,46931.65,28.61069,-81.08051,,,,,,,,,,,,0,785.11,
117.92,759.23,0,9.55,0,,0.08,46.96,,167.18,-1.3,2.74,,93411.86,47454.99,28.61071,-81.08587,,,,,,,,,,,,0,776.38,
118.92,752.46,0,9.55,0,,0.08,46.56,,167.18,-1.41,2.71,,93949.65,47978.31,28.61074,-81.09123,,,,,,,,,,,,0,767.81,
119.92,745.74,0,9.55,0,,0.08,46.16,,167.19,-1.52,2.68,,94477.89,48501.6,28.61077,-81.09659,,,,,,,,,,,,0,759.42,
120.92,739.09,0,9.55,0,,0.08,45.75,,167.19,-1.64,2.65,,94996.6,49024.87,28.61079,-81.10195,,,,,,,,,,,,0,751.2,
121.92,732.5,0,9.54,0,,0.08,45.35,,167.19,-1.77,2.63,,95505.77,49548.11,28.61082,-81.10731,,,,,,,,,,,,0,743.16,
122.92,725.98,0,9.54,0,,0.08,44.94,,167.2,-1.9,2.6,,96005.41,50071.33,28.61084,-81.11267,,,,,,,,,,,,0,735.31,
123.92,719.53,0,9.54,0,,0.08,44.53,,167.2,-2.05,2.57,,96495.51,50594.53,28.61087,-81.11803,,,,,,,,,,,,0,727.64,
124.92,713.15,0,9.54,0,,0.08,44.12,,167.2,-2.2,2.54,,96976.09,51117.7,28.6109,-81.12339,,,,,,,,,,,,0,720.16,
125.92,706.84,0,9.54,0,,0.08,43.7,,167.21,-2.35,2.51,,97447.13,51640.86,28.61092,-81.12875,,,,,,,,,,,,0,712.87,
126.92,700.6,0,9.54,0,,0.08,43.28,,167.21,-2.52,2.48,,97908.64,52163.99,28.61095,-81.13411,,,,,,,,,,,,0,705.76,
127.92,694.44,0,9.53,0,,0.08,42.87,,167.22,-2.69,2.45,,98360.63,52687.1,28.61098,-81.13947,,,,,,,,,,,,0,698.82,
128.94,688.23,0,9.53,0,,0.08,42.44,,167.22,-2.88,2.42,,98811.85,53220.66,28.611,-81.14493,,,,,,,,,,,,0,691.93,
129.96,682.11,0,9.53,0,,0.08,42.01,,167.22,-3.08,2.39,,99253.15,53754.19,28.61103,-81.1504,,,,,,,,,,,,0,685.21,
130.98,676.08,0,9.53,0,,0.08,41.57,,167.23,-3.28,2.37,,99684.55,54287.7,28.61105,-81.15586,,,,,,,,,,,,0,678.67,
132,670.13,0,9.53,0,,0.08,41.14,,167.23,-3.49,2.34,,100106.05,54821.2,28.61108,-81.16133,,,,,,,,,,,,0,672.29,
133,664.38,0,9.53,0,,0.08,40.71,,167.23,-3.71,2.31,,100509.66,55344.22,28.61111,-81.16669,,,,,,,,,,,,0,666.19,
134,658.72,0,9.53,0,,0.08,40.28,,167.24,-3.94,2.28,,100903.76,55867.21,28.61113,-81.17205,,,,,,,,,,,,0,660.24,
135,653.15,0,9.53,0,,0.08,39.85,,167.24,-4.18,2.26,,101288.34,56390.2,28.61116,-81.1774,,,,,,,,,,,,0,654.43,
136.02,647.57,0,9.52,0,,0.08,39.41,,167.24,-4.43,2.23,,101670.81,56923.62,28.61119,-81.18287,,,,,,,,,,,,0,648.65,
137.02,642.19,0,9.52,0,,0.08,38.97,,167.25,-4.68,2.21,,102036.17,57446.57,28.61121,-81.18822,,,,,,,,,,,,0,643.11,
138.04,636.8,0,9.52,0,,0.08,38.53,,167.25,-4.95,2.18,,102399.04,57979.96,28.61124,-81.19369,,,,,,,,,,,,0,637.6,
139.04,631.62,0,9.52,0,,0.08,38.09,,167.25,-5.23,2.16,,102745.19,58502.88,28.61126,-81.19904,,,,,,,,,,,,0,632.33,
140.04,626.54,0,9.52,0,,0.08,37.65,,167.26,-5.52,2.13,,103081.83,59025.78,28.61129,-81.2044,,,,,,,,,,,,0,627.18,
141.04,621.56,0,9.52,0,,0.08,37.21,,167.26,-5.81,2.11,,103408.95,59548.67,28.61132,-81.20976,,,,,,,,,,,,0,622.15,
142.04,616.69,0,9.52,0,,0.08,36.77,,167.26,-6.12,2.09,,103726.57,60071.55,28.61134,-81.21511,,,,,,,,,,,,0,617.25,
143.04,611.93,0,9.52,0,,0.08,36.32,,167.26,-6.43,2.06,,104034.68,60594.41,28.61137,-81.22047,,,,,,,,,,,,0,612.46,
144.06,607.19,0,9.52,0,,0.08,35.87,,167.27,-6.77,2.04,,104339.16,61127.72,28.61139,-81.22593,,,,,,,,,,,,0,607.7,
145.06,602.66,0,9.51,0,,0.08,35.42,,167.27,-7.1,2.02,,104628.07,61650.55,28.61142,-81.23129,,,,,,,,,,,,0,603.16,
146.06,598.25,0,9.51,0,,0.08,34.97,,167.27,-7.45,2,,104907.48,62173.37,28.61145,-81.23665,,,,,,,,,,,,0,598.73,
147.06,593.95,0,9.51,0,,0.08,34.52,,167.28,-7.8,1.98,,105177.38,62696.19,28.61147,-81.242,,,,,,,,,,,,0,594.42,
148.06,589.78,0,9.51,0,,0.08,34.07,,167.28,-8.17,1.96,,105437.78,63218.99,28.6115,-81.24736,,,,,,,,,,,,0,590.23,
149.06,585.73,0,9.51,0,,0.08,33.62,,167.28,-8.55,1.94,,105688.67,63741.77,28.61152,-81.25271,,,,,,,,,,,,0,586.17,
150.06,581.81,0,9.51,0,,0.08,33.16,,167.29,-8.93,1.92,,105930.07,64264.55,28.61155,-81.25807,,,,,,,,,,,,0,582.23,
151.08,577.94,0,9.51,0,,0.08,32.7,,167.29,-9.34,1.9,,106166.51,64797.78,28.61157,-81.26353,,,,,,,,,,,,0,578.35,
152.08,574.28,0,9.51,0,,0.08,32.24,,167.29,-9.74,1.88,,106388.71,65320.53,28.6116,-81.26889,,,,,,,,,,,,0,574.68,
153.1,570.69,0,9.51,0,,0.08,31.77,,167.29,-10.16,1.87,,106605.58,65853.74,28.61163,-81.27435,,,,,,,,,,,,0,571.07,
154.1,567.31,0,9.51,0,,0.08,31.31,,167.3,-10.59,1.85,,106808.59,66376.48,28.61165,-81.2797,,,,,,,,,,,,0,567.67,
155.1,564.06,0,9.51,0,,0.08,30.85,,167.3,-11.02,1.84,,107002.12,66899.21,28.61168,-81.28506,,,,,,,,,,,,0,564.41,
156.12,560.9,0,9.51,0,,0.08,30.38,,167.3,-11.47,1.82,,107189.72,67432.38,28.6117,-81.29052,,,,,,,,,,,,0,561.23,
157.12,557.95,0,9.51,0,,0.08,29.91,,167.31,-11.92,1.81,,107364.06,67955.1,28.61173,-81.29587,,,,,,,,,,,,0,558.26,
158.12,555.14,0,9.5,0,,0.08,29.44,,167.31,-12.38,1.79,,107528.9,68477.8,28.61176,-81.30123,,,,,,,,,,,,0,555.44,
159.14,552.43,0,9.5,0,,0.08,28.97,,167.31,-12.85,1.78,,107687.26,69010.96,28.61178,-81.30669,,,,,,,,,,,,0,552.71,
160.14,549.92,0,9.5,0,,0.08,28.5,,167.31,-13.32,1.77,,107832.92,69533.65,28.61181,-81.31204,,,,,,,,,,,,0,550.19,
161.14,547.57,0,9.5,0,,0.08,28.03,,167.32,-13.8,1.76,,107969.09,70056.34,28.61183,-81.3174,,,,,,,,,,,,0,547.82,
162.14,545.37,0,9.5,0,,0.08,27.56,,167.32,-14.29,1.75,,108095.76,70579.02,28.61186,-81.32275,,,,,,,,,,,,0,545.6,
163.14,543.33,0,9.5,0,,0.08,27.08,,167.32,-14.78,1.74,,108212.94,71101.69,28.61188,-81.32811,,,,,,,,,,,,0,543.54,
164.14,541.45,0,9.5,0,,0.08,26.61,,167.33,-15.28,1.73,,108320.63,71624.36,28.61191,-81.33346,,,,,,,,,,,,0,541.64,
165.14,539.72,0,9.5,0,,0.08,26.13,,167.33,-15.78,1.72,,108418.82,72147.02,28.61194,-81.33882,,,,,,,,,,,,0,539.9,
166.14,538.16,0,9.5,0,,0.08,25.65,,167.33,-16.29,1.71,,108507.52,72669.68,28.61196,-81.34417,,,,,,,,,,,,0,538.32,
167.14,536.76,0,9.5,0,,0.08,25.18,,167.33,-16.8,1.7,,108586.73,73192.34,28.61199,-81.34952,,,,,,,,,,,,0,536.91,
168.14,535.53,0,9.5,0,,0.08,24.69,,167.34,-17.32,1.7,,108656.45,73714.99,28.61201,-81.35488,,,,,,,,,,,,0,535.66,
169.16,534.44,0,9.5,0,,0.08,24.2,,167.34,-17.85,1.69,,108717.78,74248.09,28.61204,-81.36034,,,,,,,,,,,,0,534.55,
170.16,533.54,0,9.5,0,,0.08,23.72,,167.34,-18.37,1.69,,108768.33,74770.74,28.61206,-81.36569,,,,,,,,,,,,0,533.63,
