Time,Surface Speed (m/s),GForce (g),Acceleration (m/s^2),Thrust (kN),TWR,Mass (t),Pitch (deg),Heading (deg),Roll (deg),Angle of Attack (deg),Mach number,Altitude from Terrain (m),Altitude from the Sea (m),Downrange Distance (m),Latitude (deg),Longitude (deg),Apoapsis (m),Periapsis (m),Time to Apoapsis (s),Time to Periapsis (s),Inclination (deg),Orbital Velocity (m/s),Gravity (m/s^2),Target Distance (m),Target Speed (m/s),Stage DeltaV (m/s),Vessel DeltaV (m/s),Pressure (kPa),External Temperature (K),
1.02,83.52,9.1,79.67,26.16,,0.28,77.96,,-86.69,0,0.22,,141.75,8.96,28.60839,-80.59984,,,,,,,,,,,,99.69,294.24,
2.02,165.86,9.49,83.51,26.19,,0.27,77,,-78.63,0,0.46,,263.91,36.35,28.60838,-80.60012,,,,,,,,,,,,98.27,293.59,
3.02,251.67,9.8,86.66,26.24,,0.26,76.35,,-69.64,0,0.71,,467.61,84.81,28.60838,-80.60062,,,,,,,,,,,,95.94,292.47,
4.02,338.22,9.72,85.86,26.3,,0.24,75.89,,-59.14,0,0.96,,754.93,155.97,28.60838,-80.60135,,,,,,,,,,,,92.73,328.91,
5.04,413.29,8.11,70.13,26.37,,0.23,75.5,,-49.88,0,1.19,,1128.14,251.28,28.60837,-80.60232,,,,,,,,,,,,88.69,405.56,
6.06,490.24,8.97,78.51,26.42,,0.22,75.16,,-45.58,0,1.42,,1573.8,368.04,28.60837,-80.60352,,,,,,,,,,,,84.06,481.54,
7.08,523.41,3,38.96,0,,0.21,74.87,,-39.9,0,1.57,,2087.98,505.69,28.60836,-80.60493,,,,,,,,,,,,78.97,528.21,
8.08,486.48,2.61,35.11,0,,0.16,74.57,,-43.68,0,1.46,,2574.13,638.45,28.60835,-80.60629,,,,,,,,,,,,74.39,490.27,
9.1,476.27,0.56,4.74,4.58,,0.16,74.24,,-45.71,0,1.43,,3044.54,769.73,28.60834,-80.60764,,,,,,,,,,,,70.18,476.68,
10.1,473.4,0.71,3.69,4.58,,0.16,73.91,,-46.72,0,1.42,,3501,899.96,28.60833,-80.60897,,,,,,,,,,,,66.29,473.65,
11.1,471.87,0.84,3.04,4.58,,0.15,73.57,,-47.26,0,1.42,,3954.6,1032.26,28.60833,-80.61032,,,,,,,,,,,,62.61,471.98,
12.1,471.54,0.96,2.87,4.57,,0.15,73.22,,-47.56,0,1.43,,4406.51,1167.02,28.60832,-80.61171,,,,,,,,,,,,59.11,471.52,
13.12,472.34,1.07,3.13,4.57,,0.15,72.85,,-47.73,0,1.44,,4866.85,1307.4,28.60831,-80.61314,,,,,,,,,,,,55.72,472.21,
14.12,474.15,1.16,3.64,4.57,,0.15,72.49,,-47.83,0,1.45,,5318.54,1448.26,28.6083,-80.61459,,,,,,,,,,,,52.55,473.9,
15.12,476.88,1.26,4.27,4.57,,0.15,72.13,,-47.9,0,1.47,,5771.51,1592.66,28.60829,-80.61607,,,,,,,,,,,,49.52,476.54,
16.12,480.48,1.34,4.94,4.56,,0.14,71.75,,-47.94,0,1.49,,6226.55,1740.96,28.60828,-80.61758,,,,,,,,,,,,46.62,480.04,
17.12,484.88,1.42,5.61,4.56,,0.14,71.38,,-47.97,0,1.51,,6684.43,1893.48,28.60826,-80.61915,,,,,,,,,,,,43.84,484.36,
18.12,490.03,1.49,6.26,4.56,,0.14,71,,-47.98,0,1.53,,7145.83,2050.53,28.60825,-80.62076,,,,,,,,,,,,41.19,489.43,
19.14,496.01,1.56,6.9,4.55,,0.14,70.61,,-48,0,1.56,,7620.73,2215.73,28.60824,-80.62245,,,,,,,,,,,,38.59,495.33,
20.16,502.66,1.62,7.5,4.55,,0.14,70.22,,-48.01,0,1.59,,8100.58,2386.3,28.60823,-80.62419,,,,,,,,,,,,36.1,501.91,
21.16,509.78,1.68,8.06,4.55,,0.13,69.83,,-48.02,0,1.62,,8576.35,2559.06,28.60821,-80.62596,,,,,,,,,,,,33.77,508.97,
22.18,517.66,1.74,8.63,4.55,,0.13,69.44,,-48.03,0,1.66,,9067.6,2741.21,28.6082,-80.62783,,,,,,,,,,,,31.49,516.78,
23.2,526.14,1.8,9.2,4.54,,0.13,69.04,,-48.03,0,1.7,,9565.39,2929.69,28.60818,-80.62976,,,,,,,,,,,,29.31,525.2,
24.2,535.06,1.86,9.78,4.54,,0.13,68.66,,-48.04,0,1.74,,10060.25,3120.91,28.60816,-80.63172,,,,,,,,,,,,27.27,534.05,
25.2,544.58,1.92,10.38,4.54,,0.13,68.27,,-48.04,0,1.78,,10562.39,3318.85,28.60815,-80.63375,,,,,,,,,,,,25.32,543.51,
26.2,554.75,1.98,11.01,4.54,,0.12,67.88,,-48.05,0,1.83,,11072.32,3523.83,28.60813,-80.63585,,,,,,,,,,,,23.46,553.6,
27.22,565.81,2.05,11.69,4.53,,0.12,67.49,,-48.05,0,1.88,,11601.02,3740.53,28.60811,-80.63807,,,,,,,,,,,,21.66,564.58,
28.24,577.64,2.12,12.44,4.53,,0.12,67.09,,-48.05,0,1.93,,12138.98,3965.34,28.60809,-80.64037,,,,,,,,,,,,19.95,576.33,
29.26,590.3,2.21,13.26,4.53,,0.12,66.7,,-48.05,0,1.99,,12686.89,4198.67,28.60807,-80.64276,,,,,,,,,,,,18.33,588.89,
30.26,603.6,2.3,14.14,4.53,,0.12,66.32,,-48.05,0,2.04,,13234.4,4436.17,28.60805,-80.64519,,,,,,,,,,,,16.82,602.09,
31.28,618.12,2.39,15.08,4.53,,0.11,65.94,,-48.05,0,2.11,,13804.22,4687.85,28.60803,-80.64777,,,,,,,,,,,,15.38,616.55,
32.3,633.65,2.49,16.06,4.53,,0.11,65.56,,-48.06,0,2.17,,14386.31,4949.58,28.608,-80.65045,,,,,,,,,,,,14.01,632.12,
33.32,650.22,2.59,17.08,4.53,,0.11,65.18,,-48.06,0,2.24,,14981.55,5221.92,28.60798,-80.65324,,,,,,,,,,,,12.73,648.92,
34.34,667.89,2.7,18.15,4.53,,0.11,64.81,,-48.05,0,2.31,,15590.83,5505.48,28.60795,-80.65615,,,,,,,,,,,,11.53,667.1,
35.34,686.33,2.81,19.26,4.52,,0.11,64.45,,-48.05,0,2.38,,16202.69,5794.97,28.60793,-80.65911,,,,,,,,,,,,10.44,686.42,
36.36,706.35,2.93,20.46,4.52,,0.1,64.09,,-48.05,0,2.45,,16842.59,6102.62,28.6079,-80.66226,,,,,,,,,,,,9.4,707.79,
37.38,727.66,3.06,21.73,4.52,,0.1,63.74,,-48.05,0,2.52,,17499.49,6423.48,28.60787,-80.66555,,,,,,,,,,,,8.44,731.05,
38.38,749.86,3.19,23.02,4.52,,0.1,63.39,,-48.05,0,2.59,,18161.07,6751.57,28.60784,-80.66891,,,,,,,,,,,,7.58,755.85,
39.38,773.39,3.33,24.35,4.52,,0.1,63.06,,-48.05,0,2.67,,18841.11,7093.79,28.6078,-80.67242,,,,,,,,,,,,6.78,782.85,
40.38,798.31,3.47,25.73,4.52,,0.1,62.73,,-48.04,0,2.74,,19540.72,7450.91,28.60777,-80.67607,,,,,,,,,,,,6.06,812.27,
41.4,825.18,3.61,27.18,4.52,,0.09,62.4,,-48.04,0,2.82,,20275.68,7831.33,28.60774,-80.67997,,,,,,,,,,,,5.38,845.09,
42.4,853,3.76,28.63,4.52,,0.09,62.09,,-48.04,0,2.9,,21018.32,8220.97,28.6077,-80.68396,,,,,,,,,,,,4.78,880.41,
43.42,882.9,3.91,30.15,4.52,,0.09,61.78,,-48.03,0,2.99,,21799.61,8636.29,28.60766,-80.68822,,,,,,,,,,,,4.23,920.16,
44.42,913.76,4.07,31.67,4.52,,0.09,61.48,,-48.03,0,3.08,,22590.14,9061.88,28.60762,-80.69257,,,,,,,,,,,,3.73,963.31,
45.42,946.17,4.22,33.23,4.52,,0.09,61.18,,-48.03,0,3.18,,23406.22,9506.6,28.60758,-80.69713,,,,,,,,,,,,3.29,1011.15,
46.44,980.9,4.39,34.88,4.52,,0.08,60.9,,-48.02,0,3.28,,24266.27,9980.87,28.60753,-80.70199,,,,,,,,,,,,2.88,1065.43,
47.44,1016.61,4.56,36.54,4.52,,0.08,60.62,,-48.02,0,3.39,,25137.89,10467.06,28.60748,-80.70697,,,,,,,,,,,,2.52,1124.75,
48.46,1054.81,4.74,38.3,4.52,,0.08,60.35,,-48.01,0,3.5,,26057.35,10985.65,28.60744,-80.71228,,,,,,,,,,,,2.19,1192.3,
49.46,1094.05,4.92,40.09,4.52,,0.08,60.09,,-48.01,0,3.62,,26990.01,11517.33,28.60738,-80.71773,,,,,,,,,,,,1.9,1266.27,
50.46,1132.17,4.35,34.59,0,,0.08,59.83,,-48,0,3.74,,27954.97,12073.06,28.60733,-80.72342,,,,,,,,,,,,1.64,1348.22,
51.46,1116.76,0.68,15.85,0,,0.08,59.58,,-48,0,3.68,,28925.65,12637.65,28.60728,-80.7292,,,,,,,,,,,,1.42,1316.48,
52.48,1102.19,0.57,14.84,0,,0.08,59.32,,-47.99,0,3.62,,29899.99,13210.15,28.60722,-80.73507,,,,,,,,,,,,1.23,1280.11,
53.5,1088.59,0.48,14.02,0,,0.08,59.05,,-47.99,0,3.56,,30859.35,13779.73,28.60717,-80.7409,,,,,,,,,,,,1.07,1247.42,
54.52,1075.8,0.41,13.33,0,,0.08,58.78,,-47.98,0,3.5,,31804.49,14346.82,28.60711,-80.74671,,,,,,,,,,,,0.93,1217.91,
55.54,1063.69,0.35,12.76,0,,0.08,58.5,,-47.98,0,3.45,,32736.04,14911.78,28.60706,-80.7525,,,,,,,,,,,,0.81,1191.07,
56.56,1052.16,0.3,12.29,0,,0.08,58.22,,-47.97,0,3.39,,33654.55,15474.9,28.607,-80.75826,,,,,,,,,,,,0.71,1166.46,
57.56,1041.32,0.25,11.9,0,,0.08,57.93,,-47.97,0,3.35,,34542.8,16025.46,28.60695,-80.7639,,,,,,,,,,,,0.63,1144.15,
58.58,1030.69,0.22,11.57,0,,0.08,57.64,,-47.96,0,3.3,,35436.72,16585.67,28.6069,-80.76964,,,,,,,,,,,,0.56,1122.98,
59.58,1020.62,0.19,11.29,0,,0.08,57.35,,-47.96,0,3.25,,36301.53,17133.76,28.60684,-80.77526,,,,,,,,,,,,0.49,1103.61,
60.6,1010.65,0.16,11.05,0,,0.08,57.04,,-47.95,0,3.21,,37172.12,17691.79,28.60679,-80.78097,,,,,,,,,,,,0.44,1085.1,
61.62,1000.97,0.13,10.84,0,,0.08,56.73,,-47.94,0,3.16,,38031.3,18248.95,28.60674,-80.78668,,,,,,,,,,,,0.39,1067.69,
62.64,991.53,0.11,10.66,0,,0.08,56.42,,-47.94,0,3.12,,38879.27,18805.34,28.60668,-80.79238,,,,,,,,,,,,0.35,1051.26,
63.66,982.3,0.1,10.51,0,,0.08,56.1,,-47.93,0,3.08,,39716.21,19361.07,28.60663,-80.79807,,,,,,,,,,,,0.31,1035.72,
64.68,973.26,0.08,10.38,0,,0.08,55.77,,-47.93,0,3.04,,40542.26,19916.24,28.60657,-80.80376,,,,,,,,,,,,0.28,1020.97,
65.7,964.39,0.07,10.27,0,,0.08,55.44,,-47.92,0,3,,41357.55,20470.91,28.60652,-80.80944,,,,,,,,,,,,0.25,1006.95,
66.7,955.84,0.06,10.18,0,,0.08,55.11,,-47.92,0,2.96,,42146.52,21014.3,28.60647,-80.81501,,,,,,,,,,,,0.22,993.84,
67.72,947.23,0.05,10.13,0,,0.08,54.76,,-47.91,0,2.92,,42940.81,21568.2,28.60642,-80.82068,,,,,,,,,,,,0.2,981.05,
68.74,938.7,0.05,10.08,0,,0.08,54.42,,-47.9,0,2.89,,43724.59,22121.76,28.60636,-80.82635,,,,,,,,,,,,0.18,968.79,
69.74,930.43,0.04,10.04,0,,0.08,54.07,,-47.9,0,2.85,,44482.85,22664.16,28.60631,-80.8319,,,,,,,,,,,,0.17,957.25,
70.74,922.23,0.04,10,0,,0.08,53.71,,-47.89,0,2.82,,45231.08,23206.29,28.60626,-80.83746,,,,,,,,,,,,0.15,946.16,
71.74,914.1,0.04,9.97,0,,0.08,53.35,,-47.89,0,2.79,,45969.33,23748.17,28.6062,-80.84301,,,,,,,,,,,,0.14,935.47,
72.74,906.04,0.03,9.95,0,,0.08,52.99,,-47.88,0,2.76,,46697.63,24289.81,28.60615,-80.84856,,,,,,,,,,,,0.12,925.15,
73.74,898.05,0.03,9.92,0,,0.08,52.61,,-47.88,0,2.73,,47416,24831.23,28.6061,-80.8541,,,,,,,,,,,,0.11,915.17,
74.76,889.97,0.03,9.9,0,,0.08,52.23,,-47.87,0,2.7,,48138.53,25383.27,28.60605,-80.85976,,,,,,,,,,,,0.1,905.31,
75.76,882.11,0.03,9.88,0,,0.08,51.84,,-47.87,0,2.68,,48836.91,25924.29,28.60599,-80.8653,,,,,,,,,,,,0.1,895.93,
76.76,874.32,0.02,9.86,0,,0.08,51.45,,-47.86,0,2.65,,49525.44,26465.14,28.60594,-80.87084,,,,,,,,,,,,0.09,886.8,
77.76,866.58,0.02,9.84,0,,0.08,51.05,,-47.86,0,2.63,,50204.12,27005.81,28.60589,-80.87638,,,,,,,,,,,,0.08,877.91,
78.78,858.75,0.02,9.83,0,,0.08,50.63,,-47.85,0,2.61,,50886.26,27557.14,28.60584,-80.88202,,,,,,,,,,,,0.07,869.05,
79.8,850.99,0.02,9.81,0,,0.08,50.21,,-47.84,0,2.59,,51558.18,28108.31,28.60578,-80.88767,,,,,,,,,,,,0.07,860.39,
80.82,843.29,0.02,9.8,0,,0.08,49.78,,-47.84,0.01,2.57,,52219.91,28659.34,28.60573,-80.89331,,,,,,,,,,,,0.06,851.89,
81.82,835.79,0.02,9.79,0,,0.08,49.36,,-47.83,0.01,2.56,,52858.79,29199.43,28.60568,-80.89885,,,,,,,,,,,,0.06,843.71,
82.84,828.21,0.01,9.78,0,,0.08,48.91,,-47.83,0.01,2.54,,53500.37,29750.19,28.60562,-80.90449,,,,,,,,,,,,0.05,835.51,
83.84,820.84,0.01,9.77,0,,0.08,48.47,,-47.82,0.01,2.52,,54119.52,30290.03,28.60557,-80.91002,,,,,,,,,,,,0.05,827.57,
84.86,813.39,0.01,9.76,0,,0.08,48.01,,-47.82,0.01,2.51,,54741,30840.55,28.60552,-80.91566,,,,,,,,,,,,0.05,819.58,
85.86,806.14,0.01,9.75,0,,0.08,47.55,,-47.81,0.01,2.49,,55340.45,31380.17,28.60546,-80.92118,,,,,,,,,,,,0.04,811.85,
86.88,798.8,0.01,9.74,0,,0.08,47.07,,-47.81,0.01,2.48,,55941.86,31930.47,28.60541,-80.92682,,,,,,,,,,,,0.04,804.07,
87.88,791.68,0.01,9.73,0,,0.08,46.6,,-47.8,0.01,2.46,,56521.65,32469.89,28.60536,-80.93234,,,,,,,,,,,,0.04,796.53,
88.88,784.62,0.01,9.73,0,,0.08,46.11,,-47.8,0.01,2.45,,57091.72,33009.2,28.60531,-80.93787,,,,,,,,,,,,0.03,789.1,
89.88,777.62,0.01,9.72,0,,0.08,45.62,,-47.79,0.01,2.44,,57652.08,33548.43,28.60525,-80.94339,,,,,,,,,,,,0.03,781.76,
90.88,770.69,0.01,9.71,0,,0.08,45.12,,-47.78,0.02,2.42,,58202.73,34087.57,28.6052,-80.94891,,,,,,,,,,,,0.03,774.5,
91.88,763.82,0.01,9.71,0,,0.08,44.61,,-47.78,0.02,2.41,,58743.68,34626.63,28.60515,-80.95444,,,,,,,,,,,,0.03,767.34,
92.9,756.89,0.01,9.7,0,,0.08,44.08,,-47.77,0.02,2.39,,59285.46,35176.38,28.6051,-80.96007,,,,,,,,,,,,0.03,760.13,
93.9,750.16,0.01,9.7,0,,0.08,43.56,,-47.77,0.02,2.38,,59806.82,35715.28,28.60504,-80.96559,,,,,,,,,,,,0.02,753.14,
94.9,743.5,0.01,9.69,0,,0.08,43.02,,-47.76,0.02,2.37,,60318.5,36254.1,28.60499,-80.97111,,,,,,,,,,,,0.02,746.24,
95.9,736.91,0.01,9.69,0,,0.08,42.47,,-47.76,0.02,2.35,,60820.5,36792.85,28.60494,-80.97662,,,,,,,,,,,,0.02,739.43,
96.92,730.27,0.01,9.68,0,,0.08,41.91,,-47.75,0.03,2.34,,61322.56,37342.3,28.60489,-80.98225,,,,,,,,,,,,0.02,732.58,
97.92,723.83,0.01,9.68,0,,0.08,41.34,,-47.75,0.03,2.33,,61805.02,37880.91,28.60483,-80.98777,,,,,,,,,,,,0.02,725.95,
98.92,717.47,0.01,9.68,0,,0.08,40.77,,-47.74,0.03,2.31,,62277.8,38419.46,28.60478,-80.99329,,,,,,,,,,,,0.02,719.41,
99.92,711.19,0.01,9.67,0,,0.08,40.18,,-47.74,0.03,2.3,,62740.92,38957.95,28.60473,-80.9988,,,,,,,,,,,,0.02,712.96,
100.92,704.99,0.01,9.67,0,,0.08,39.59,,-47.73,0.04,2.29,,63194.38,39496.37,28.60468,-81.00432,,,,,,,,,,,,0.01,706.61,
101.92,698.86,0.01,9.67,0,,0.08,38.98,,-47.73,0.04,2.27,,63638.18,40034.74,28.60462,-81.00983,,,,,,,,,,,,0.01,700.35,
102.92,692.82,0,9.66,0,,0.08,38.37,,-47.72,0.04,2.26,,64072.32,40573.05,28.60457,-81.01535,,,,,,,,,,,,0.01,694.19,
103.94,686.75,0,9.66,0,,0.08,37.73,,-47.72,0.05,2.25,,64505.2,41122.07,28.60452,-81.02097,,,,,,,,,,,,0.01,688,
104.94,680.89,0,9.66,0,,0.08,37.09,,-47.71,0.05,2.23,,64919.86,41660.28,28.60447,-81.02648,,,,,,,,,,,,0.01,682.03,
105.96,675,0,9.65,0,,0.08,36.43,,-47.71,0.05,2.22,,65332.87,42209.19,28.60441,-81.0321,,,,,,,,,,,,0.01,676.05,
106.96,669.32,0,9.65,0,,0.08,35.77,,-47.7,0.06,2.21,,65728.04,42747.3,28.60436,-81.03762,,,,,,,,,,,,0.01,670.29,
107.96,663.73,0,9.65,0,,0.08,35.11,,-47.7,0.06,2.19,,66113.57,43285.35,28.60431,-81.04313,,,,,,,,,,,,0.01,664.63,
108.96,658.24,0,9.65,0,,0.08,34.43,,-47.69,0.07,2.18,,66489.46,43823.37,28.60426,-81.04864,,,,,,,,,,,,0.01,659.07,
109.96,652.84,0,9.64,0,,0.08,33.73,,-47.69,0.07,2.17,,66855.72,44361.33,28.6042,-81.05415,,,,,,,,,,,,0.01,653.62,
110.96,647.54,0,9.64,0,,0.08,33.03,,-47.69,0.08,2.16,,67212.34,44899.26,28.60415,-81.05966,,,,,,,,,,,,0.01,648.28,
111.96,642.35,0,9.64,0,,0.08,32.32,,-47.68,0.08,2.15,,67559.34,45437.14,28.6041,-81.06517,,,,,,,,,,,,0.01,643.04,
112.96,637.26,0,9.64,0,,0.08,31.6,,-47.68,0.09,2.13,,67896.7,45974.98,28.60405,-81.07068,,,,,,,,,,,,0.01,637.91,
113.96,632.28,0,9.64,0,,0.08,30.86,,-47.67,0.09,2.12,,68224.44,46512.78,28.60399,-81.07618,,,,,,,,,,,,0.01,632.89,
114.96,627.41,0,9.63,0,,0.08,30.11,,-47.67,0.1,2.11,,68542.55,47050.54,28.60394,-81.08169,,,,,,,,,,,,0.01,627.99,
115.96,622.65,0,9.63,0,,0.08,29.36,,-47.66,0.1,2.1,,68851.04,47588.26,28.60389,-81.0872,,,,,,,,,,,,0.01,623.2,
116.98,617.91,0,9.63,0,,0.08,28.57,,-47.66,0.11,2.09,,69155.78,48136.71,28.60384,-81.09282,,,,,,,,,,,,0.01,618.44,
117.98,613.38,0,9.63,0,,0.08,27.79,,-47.65,0.12,2.08,,69444.84,48674.36,28.60378,-81.09833,,,,,,,,,,,,0.01,613.89,
118.98,608.97,0,9.63,0,,0.08,27,,-47.65,0.12,2.07,,69724.27,49211.97,28.60373,-81.10383,,,,,,,,,,,,0.01,609.46,
119.98,604.68,0,9.63,0,,0.08,26.2,,-47.65,0.13,2.05,,69994.09,49749.55,28.60368,-81.10934,,,,,,,,,,,,0.01,605.15,
121,600.44,0,9.63,0,,0.08,25.36,,-47.64,0.13,2.04,,70259.4,50297.85,28.60363,-81.11495,,,,,,,,,,,,0.01,600.89,
122,596.4,0,9.62,0,,0.08,24.54,,-47.64,0.14,2.03,,70509.79,50835.36,28.60357,-81.12046,,,,,,,,,,,,0,596.84,
123,592.49,0,9.62,0,,0.08,23.7,,-47.63,0.15,2.02,,70750.57,51372.84,28.60352,-81.12597,,,,,,,,,,,,0,592.92,
124.02,588.65,0,9.62,0,,0.08,22.83,,-47.63,0.15,2.01,,70986.27,51921.04,28.60347,-81.13158,,,,,,,,,,,,0,589.05,
125.02,585.01,0,9.62,0,,0.08,21.97,,-47.62,0.16,2,,71207.64,52458.45,28.60341,-81.13709,,,,,,,,,,,,0,585.4,
126.02,581.51,0,9.62,0,,0.08,21.1,,-47.62,0.16,1.99,,71419.39,52995.84,28.60336,-81.14259,,,,,,,,,,,,0,581.88,
127.04,578.08,0,9.62,0,,0.08,20.2,,-47.62,0.16,1.99,,71625.49,53543.94,28.60331,-81.1482,,,,,,,,,,,,0,578.44,
128.08,574.73,0,9.62,0,,0.08,19.27,,-47.61,0.17,1.98,,71825.33,54102.76,28.60325,-81.15393,,,,,,,,,,,,0,575.08,
129.1,571.6,0,9.62,0,,0.08,18.34,,-47.61,0.17,1.97,,72011.23,54650.81,28.6032,-81.15954,,,,,,,,,,,,0,571.93,
130.12,568.62,0,9.62,0,,0.08,17.41,,-47.6,0.17,1.96,,72187.15,55198.82,28.60315,-81.16515,,,,,,,,,,,,0,568.94,
131.14,565.8,0,9.61,0,,0.08,16.46,,-47.6,0.18,1.95,,72353.07,55746.81,28.60309,-81.17077,,,,,,,,,,,,0,566.1,
132.14,563.18,0,9.61,0,,0.08,15.53,,-47.6,0.18,1.94,,72506.04,56284.03,28.60304,-81.17627,,,,,,,,,,,,0,563.46,
133.16,560.67,0,9.61,0,,0.08,14.56,,-47.59,0.18,1.94,,72652.17,56831.96,28.60299,-81.18188,,,,,,,,,,,,0,560.93,
134.16,558.36,0,9.61,0,,0.08,13.6,,-47.59,0.17,1.93,,72785.74,57369.12,28.60294,-81.18738,,,,,,,,,,,,0,558.61,
135.18,556.17,0,9.61,0,,0.08,12.62,,-47.59,0.17,1.92,,72912.09,57917.01,28.60288,-81.193,,,,,,,,,,,,0,556.4,
136.18,554.18,0,9.61,0,,0.08,11.64,,-47.58,0.17,1.92,,73026.27,58454.12,28.60283,-81.1985,,,,,,,,,,,,0,554.39,
137.2,552.32,0,9.61,0,,0.08,10.64,,-47.58,0.16,1.91,,73132.85,59001.96,28.60278,-81.20411,,,,,,,,,,,,0,552.51,
138.2,550.65,0,9.61,0,,0.08,9.65,,-47.57,0.16,1.91,,73227.63,59539.03,28.60272,-81.20961,,,,,,,,,,,,0,550.83,
139.2,549.15,0,9.61,0,,0.08,8.65,,-47.57,0.15,1.9,,73312.82,60076.07,28.60267,-81.21511,,,,,,,,,,,,0,549.31,
140.2,547.81,0,9.61,0,,0.08,7.65,,-47.57,0.14,1.9,,73388.41,60613.1,28.60262,-81.22061,,,,,,,,,,,,0,547.95,
141.22,546.61,0,9.61,0,,0.08,6.61,,-47.56,0.13,1.9,,73455.63,61160.84,28.60256,-81.22622,,,,,,,,,,,,0,546.73,
142.24,545.59,0,9.61,0,,0.08,5.58,,-47.56,0.12,1.89,,73512.86,61708.57,28.60251,-81.23183,,,,,,,,,,,,0,545.69,
143.24,544.75,0,9.61,0,,0.08,4.55,,-47.56,0.11,1.89,,73559.28,62245.53,28.60246,-81.23733,,,,,,,,,,,,0,544.84,
144.24,544.09,0,9.61,0,,0.08,3.52,,-47.55,0.09,1.89,,73596.1,62782.47,28.60241,-81.24283,,,,,,,,,,,,0,544.15,
145.26,543.58,0,9.61,0,,0.08,2.47,,-47.55,0.08,1.89,,73623.77,63330.14,28.60235,-81.24844,,,,,,,,,,,,0,543.63,
146.26,543.25,0,9.61,0,,0.08,1.44,,-47.55,0.06,1.89,,73641.21,63867.04,28.6023,-81.25394,,,,,,,,,,,,0,543.28,
147.26,543.1,0,9.61,0,,0.08,0.4,,-47.55,0.04,1.89,,73649.06,64403.93,28.60225,-81.25944,,,,,,,,,,,,0,543.1,
148.28,543.11,0,9.61,0,,0.08,-0.66,,-47.54,0.02,1.89,,73647.17,64951.54,28.60219,-81.26505,,,,,,,,,,,,0,543.1,
149.28,543.29,0,9.61,0,,0.08,-1.7,,-47.54,0,1.89,,73635.64,65488.39,28.60214,-81.27055,,,,,,,,,,,,0,543.26,
150.3,543.65,0,9.6,0,,0.08,-2.77,,-47.54,-0.02,1.89,,73613.99,66035.96,28.60209,-81.27616,,,,,,,,,,,,0,543.61,
151.3,544.18,0,9.6,0,,0.08,-3.81,,-47.53,-0.04,1.89,,73583.07,66572.78,28.60203,-81.28165,,,,,,,,,,,,0,544.11,
152.3,544.87,0,9.6,0,,0.08,-4.84,,-47.53,-0.06,1.89,,73542.56,67109.58,28.60198,-81.28715,,,,,,,,,,,,0,544.79,
153.3,545.73,0,9.6,0,,0.08,-5.88,,-47.53,-0.08,1.89,,73492.46,67646.36,28.60193,-81.29265,,,,,,,,,,,,0,545.63,
154.32,546.78,0,9.6,0,,0.08,-6.93,,-47.53,-0.1,1.9,,73431.47,68193.86,28.60187,-81.29826,,,,,,,,,,,,0,546.66,
155.32,547.97,0,9.6,0,,0.08,-7.96,,-47.52,-0.12,1.9,,73361.99,68730.62,28.60182,-81.30376,,,,,,,,,,,,0,547.83,
156.32,549.33,0,9.6,0,,0.08,-8.98,,-47.52,-0.14,1.9,,73282.92,69267.36,28.60177,-81.30925,,,,,,,,,,,,0,549.17,
157.32,550.85,0,9.6,0,,0.08,-9.99,,-47.52,-0.16,1.91,,73194.25,69804.08,28.60172,-81.31475,,,,,,,,,,,,0,550.68,
158.32,552.54,0,9.6,0,,0.08,-11,,-47.51,-0.18,1.91,,73095.99,70340.79,28.60166,-81.32025,,,,,,,,,,,,0,552.35,
159.32,554.38,0,9.6,0,,0.08,-11.99,,-47.51,-0.19,1.92,,72988.14,70877.48,28.60161,-81.32575,,,,,,,,,,,,0,554.17,
160.32,556.39,0,9.6,0,,0.08,-12.98,,-47.51,-0.2,1.92,,72870.69,71414.16,28.60156,-81.33124,,,,,,,,,,,,0,556.16,
161.32,558.55,0,9.6,0,,0.08,-13.95,,-47.51,-0.21,1.93,,72743.65,71950.82,28.60151,-81.33674,,,,,,,,,,,,0,558.3,
162.34,560.91,0,9.6,0,,0.08,-14.94,,-47.5,-0.22,1.94,,72604.19,72498.21,28.60145,-81.34235,,,,,,,,,,,,0,560.65,
163.34,563.38,0,9.6,0,,0.08,-15.89,,-47.5,-0.23,1.94,,72457.77,73034.84,28.6014,-81.34784,,,,,,,,,,,,0,563.1,
164.36,566.06,0,9.6,0,,0.08,-16.85,,-47.5,-0.23,1.95,,72298.54,73582.2,28.60134,-81.35345,,,,,,,,,,,,0,565.76,
165.36,568.83,0,9.6,0,,0.08,-17.77,,-47.5,-0.23,1.96,,72132.75,74118.81,28.60129,-81.35895,,,,,,,,,,,,0,568.52,
166.36,571.75,0,9.61,0,,0.08,-18.68,,-47.5,-0.22,1.97,,71957.36,74655.4,28.60124,-81.36444,,,,,,,,,,,,0,571.43,
167.36,574.82,0,9.61,0,,0.08,-19.58,,-47.49,-0.21,1.97,,71772.37,75191.98,28.60119,-81.36994,,,,,,,,,,,,0,574.48,
168.36,578.03,0,9.61,0,,0.08,-20.46,,-47.49,-0.2,1.98,,71577.8,75728.55,28.60113,-81.37543,,,,,,,,,,,,0,577.67,
169.38,581.45,0,9.61,0,,0.08,-21.35,,-47.49,-0.19,1.99,,71369.45,76275.84,28.60108,-81.38104,,,,,,,,,,,,0,581.07,
170.4,585.01,0,9.61,0,,0.08,-22.22,,-47.49,-0.17,2,,71151.11,76823.11,28.60102,-81.38664,,,,,,,,,,,,0,584.62,
171.4,588.63,0,9.61,0,,0.08,-23.06,,-47.48,-0.16,2.01,,70927.37,77359.64,28.60097,-81.39214,,,,,,,,,,,,0,588.23,
